freq,psd_x,psd_y,psd_z,psd_xyz
0.0,6.776e+02,1.391e+01,1.029e+01,7.018e+02
1.6,4.400e+02,7.876e+01,4.090e+01,5.597e+02
3.1,9.456e+01,9.908e+01,5.559e+01,2.492e+02
4.7,4.074e+02,9.664e+01,5.867e+01,5.627e+02
6.2,1.117e+03,8.217e+01,5.190e+01,1.251e+03
7.8,1.736e+03,8.928e+01,5.257e+01,1.878e+03
9.3,2.467e+03,8.555e+01,5.287e+01,2.606e+03
10.9,3.367e+03,8.752e+01,4.716e+01,3.502e+03
12.4,4.549e+03,9.163e+01,5.113e+01,4.691e+03
14.0,5.946e+03,8.375e+01,5.009e+01,6.080e+03
15.5,7.563e+03,9.223e+01,5.513e+01,7.710e+03
17.1,8.414e+03,1.026e+02,6.699e+01,8.584e+03
18.6,9.407e+03,9.594e+01,6.588e+01,9.569e+03
20.2,9.661e+03,1.001e+02,5.595e+01,9.817e+03
21.7,1.010e+04,1.272e+02,4.968e+01,1.028e+04
23.3,1.246e+04,1.393e+02,5.097e+01,1.265e+04
24.8,1.580e+04,1.509e+02,6.022e+01,1.601e+04
26.4,1.900e+04,1.485e+02,7.530e+01,1.922e+04
27.9,2.220e+04,1.570e+02,7.641e+01,2.243e+04
29.5,2.562e+04,1.691e+02,8.048e+01,2.587e+04
31.1,2.735e+04,1.397e+02,7.973e+01,2.757e+04
32.6,2.910e+04,1.173e+02,7.595e+01,2.929e+04
34.2,3.207e+04,1.068e+02,8.160e+01,3.226e+04
35.7,3.544e+04,1.125e+02,8.557e+01,3.564e+04
37.3,3.920e+04,1.167e+02,8.531e+01,3.940e+04
38.8,4.287e+04,1.171e+02,9.266e+01,4.308e+04
40.4,4.666e+04,1.310e+02,1.094e+02,4.690e+04
41.9,5.179e+04,1.174e+02,1.298e+02,5.203e+04
43.5,5.740e+04,1.039e+02,1.520e+02,5.766e+04
45.0,6.307e+04,9.471e+01,1.929e+02,6.336e+04
46.6,7.167e+04,9.066e+01,2.825e+02,7.204e+04
48.1,7.927e+04,1.065e+02,3.001e+02,7.968e+04
49.7,8.437e+04,1.142e+02,2.315e+02,8.472e+04
51.2,9.120e+04,1.060e+02,2.290e+02,9.154e+04
52.8,1.030e+05,1.031e+02,2.496e+02,1.034e+05
54.3,1.155e+05,1.157e+02,2.529e+02,1.159e+05
55.9,1.312e+05,1.149e+02,2.849e+02,1.316e+05
57.4,1.421e+05,1.232e+02,4.069e+02,1.426e+05
59.0,1.537e+05,1.243e+02,7.358e+02,1.545e+05
60.5,1.681e+05,1.511e+02,1.675e+03,1.699e+05
62.1,1.869e+05,2.063e+02,5.217e+03,1.924e+05
63.7,1.995e+05,4.398e+02,1.458e+04,2.145e+05
65.2,2.314e+05,5.877e+02,1.715e+04,2.492e+05
66.8,2.787e+05,3.993e+02,8.070e+03,2.872e+05
68.3,3.084e+05,2.727e+02,3.515e+03,3.121e+05
69.9,3.543e+05,2.361e+02,2.824e+03,3.573e+05
71.4,4.235e+05,2.610e+02,2.769e+03,4.265e+05
73.0,5.182e+05,2.925e+02,2.760e+03,5.213e+05
74.5,6.329e+05,3.662e+02,2.892e+03,6.362e+05
76.1,7.814e+05,4.190e+02,2.930e+03,7.847e+05
77.6,9.990e+05,5.754e+02,3.177e+03,1.003e+06
79.2,1.260e+06,8.395e+02,3.758e+03,1.265e+06
80.7,1.481e+06,1.026e+03,4.120e+03,1.487e+06
82.3,1.616e+06,1.051e+03,4.118e+03,1.621e+06
83.8,1.913e+06,1.099e+03,4.381e+03,1.919e+06
85.4,2.526e+06,1.352e+03,5.244e+03,2.532e+06
86.9,3.409e+06,1.567e+03,6.863e+03,3.418e+06
88.5,4.367e+06,1.754e+03,8.979e+03,4.377e+06
90.0,4.327e+06,1.890e+03,8.169e+03,4.337e+06
91.6,3.551e+06,1.723e+03,5.830e+03,3.559e+06
93.2,2.755e+06,1.468e+03,3.490e+03,2.760e+06
94.7,2.319e+06,1.432e+03,2.068e+03,2.323e+06
96.3,2.559e+06,1.611e+03,1.778e+03,2.562e+06
97.8,2.673e+06,1.834e+03,1.626e+03,2.677e+06
99.4,2.433e+06,1.969e+03,1.275e+03,2.436e+06
100.9,2.179e+06,2.186e+03,1.333e+03,2.182e+06
102.5,1.938e+06,2.384e+03,1.796e+03,1.942e+06
104.0,1.633e+06,2.221e+03,1.856e+03,1.637e+06
105.6,1.120e+06,1.691e+03,1.469e+03,1.123e+06
107.1,8.325e+05,1.471e+03,1.224e+03,8.352e+05
108.7,5.951e+05,1.229e+03,8.534e+02,5.971e+05
110.2,5.736e+05,1.429e+03,7.957e+02,5.758e+05
111.8,6.419e+05,1.854e+03,1.095e+03,6.449e+05
113.3,5.252e+05,1.767e+03,1.179e+03,5.281e+05
114.9,5.147e+05,1.989e+03,1.577e+03,5.183e+05
116.4,5.907e+05,2.559e+03,2.422e+03,5.957e+05
118.0,6.155e+05,3.010e+03,3.606e+03,6.221e+05
119.5,5.995e+05,3.216e+03,5.190e+03,6.079e+05
121.1,5.784e+05,3.180e+03,7.190e+03,5.888e+05
122.6,5.593e+05,2.937e+03,9.544e+03,5.718e+05
124.2,5.378e+05,2.686e+03,1.147e+04,5.520e+05
125.8,5.136e+05,2.569e+03,1.316e+04,5.293e+05
127.3,4.870e+05,2.363e+03,1.707e+04,5.064e+05
128.9,4.625e+05,1.975e+03,2.221e+04,4.866e+05
130.4,4.459e+05,1.759e+03,2.466e+04,4.723e+05
132.0,4.049e+05,1.614e+03,2.206e+04,4.286e+05
133.5,1.518e+05,6.914e+02,8.560e+03,1.610e+05
135.1,2.622e+04,2.188e+02,2.185e+03,2.862e+04
136.6,2.149e+04,2.032e+02,1.522e+03,2.322e+04
138.2,2.003e+04,2.244e+02,1.104e+03,2.136e+04
139.7,1.925e+04,2.418e+02,7.832e+02,2.028e+04
141.3,1.944e+04,2.310e+02,6.093e+02,2.028e+04
142.8,1.986e+04,2.668e+02,5.960e+02,2.072e+04
144.4,1.972e+04,2.879e+02,5.354e+02,2.054e+04
145.9,2.051e+04,3.037e+02,4.743e+02,2.129e+04
147.5,2.210e+04,3.135e+02,4.028e+02,2.282e+04
149.0,2.405e+04,3.364e+02,3.532e+02,2.474e+04
150.6,2.522e+04,3.836e+02,3.558e+02,2.596e+04
152.1,2.619e+04,4.256e+02,4.346e+02,2.705e+04
153.7,2.810e+04,4.914e+02,5.283e+02,2.912e+04
155.3,2.992e+04,6.014e+02,4.916e+02,3.102e+04
156.8,3.200e+04,7.389e+02,4.788e+02,3.322e+04
158.4,3.642e+04,9.513e+02,4.858e+02,3.786e+04
159.9,3.975e+04,1.205e+03,4.876e+02,4.144e+04
161.5,4.165e+04,1.391e+03,4.840e+02,4.352e+04
163.0,4.718e+04,1.767e+03,4.709e+02,4.941e+04
164.6,4.782e+04,2.130e+03,4.741e+02,5.043e+04
166.1,5.061e+04,2.572e+03,4.857e+02,5.366e+04
167.7,5.094e+04,2.956e+03,4.771e+02,5.437e+04
169.2,4.936e+04,3.143e+03,4.430e+02,5.294e+04
170.8,4.553e+04,3.501e+03,4.458e+02,4.947e+04
172.3,4.086e+04,4.011e+03,4.769e+02,4.535e+04
173.9,3.149e+04,3.881e+03,4.977e+02,3.587e+04
175.4,2.251e+04,3.360e+03,5.467e+02,2.642e+04
177.0,1.580e+04,3.009e+03,6.623e+02,1.947e+04
178.5,1.182e+04,2.922e+03,8.165e+02,1.556e+04
180.1,8.516e+03,2.203e+03,7.096e+02,1.143e+04
181.6,5.937e+03,1.781e+03,5.901e+02,8.307e+03
183.2,4.297e+03,1.469e+03,5.632e+02,6.329e+03
184.8,3.052e+03,1.204e+03,4.793e+02,4.736e+03
186.3,2.111e+03,1.228e+03,3.781e+02,3.717e+03
187.9,1.838e+03,1.294e+03,2.984e+02,3.431e+03
189.4,1.564e+03,1.006e+03,2.224e+02,2.793e+03
191.0,1.558e+03,1.016e+03,4.396e+02,3.014e+03
192.5,1.122e+03,1.033e+03,6.422e+02,2.797e+03
194.1,9.377e+02,9.620e+02,5.852e+02,2.485e+03
195.6,8.976e+02,1.043e+03,5.978e+02,2.538e+03
197.2,8.373e+02,1.114e+03,5.506e+02,2.502e+03
198.7,7.661e+02,1.086e+03,5.085e+02,2.361e+03
